     1.000	-0.0002267598	
     2.000	0.001367962	
     3.000	0.01335489	
     4.000	0.06636297	
     5.000	0.08427375	
     6.000	0.09236882	
     7.000	0.09811259	
     8.000	0.1025463	
     9.000	0.1062516	
    10.000	0.1095552	
    11.000	0.1126556	
    12.000	  0.11567	
    13.000	 0.118673	
    14.000	0.1216997	
    15.000	0.1247765	
    16.000	0.1279084	
    17.000	0.1310742	
    18.000	0.1343241	
    19.000	0.1377473	
    20.000	0.1412892	
    21.000	0.1448969	
    22.000	0.1485645	
    23.000	0.1523026	
    24.000	0.1561276	
    25.000	0.1600608	
    26.000	0.1641123	
    27.000	0.1683012	
    28.000	 0.172638	
    29.000	0.1771252	
    30.000	0.1817817	
    31.000	0.1866399	
    32.000	0.1915229	
    33.000	0.1965068	
    34.000	0.2016645	
    35.000	0.2070495	
    36.000	0.2126629	
    37.000	0.2185049	
    38.000	0.2245492	
    39.000	0.2305972	
    40.000	0.2358295	
    41.000	0.2368231	
    42.000	0.2201148	
    43.000	0.1390157	
    44.000	0.05882054	
    45.000	0.03964696	
    46.000	0.02815122	
    47.000	0.02184657	
    48.000	0.01828719	
    49.000	0.01595233	
    50.000	0.01459916	
    51.000	0.01383668	
    52.000	0.01331599	
    53.000	0.01285269	
    54.000	0.01236213	
    55.000	0.01181232	
    56.000	0.01120015	
    57.000	0.01053713	
    58.000	0.0098401	
    59.000	0.009125996	
    60.000	0.008409349	
    61.000	0.007701521	
    62.000	0.007010779	
    63.000	0.006342732	
    64.000	0.005700855	
    65.000	0.005087003	
    66.000	0.004501844	
    67.000	0.003945215	
    68.000	0.00341639	
    69.000	0.002914288	
    70.000	0.002437611	
    71.000	0.001984958	
    72.000	0.001554887	
    73.000	0.001145969	
    74.000	0.000756821	
    75.000	0.0003861204	
    76.000	3.262148e-05	
    77.000	-0.0003048406	
    78.000	-0.0006273474	
    79.000	-0.0009358983	
    80.000	-0.001231413	
    81.000	-0.001514734	
    82.000	-0.001786635	
    83.000	-0.002047818	
    84.000	-0.002298927	
    85.000	-0.002540547	
    86.000	-0.00277321	
    87.000	-0.0029974	
    88.000	-0.003213557	
    89.000	-0.003422082	
    90.000	-0.003623338	
    91.000	-0.003817658	
    92.000	-0.004005342	
    93.000	-0.004186665	
    94.000	-0.004361877	
    95.000	-0.004531209	
    96.000	-0.004694868	
    97.000	-0.004853048	
    98.000	-0.005005923	
    99.000	-0.005153656	
   100.000	-0.005296396	
   101.000	-0.005434281	
   102.000	-0.005567437	
   103.000	-0.005695985	
   104.000	-0.005820033	
   105.000	-0.005939684	
   106.000	-0.006055035	
   107.000	-0.006166174	
   108.000	-0.006273188	
   109.000	-0.006376155	
   110.000	-0.00647515	
   111.000	-0.006570245	
   112.000	-0.006661507	
   113.000	-0.006749001	
   114.000	-0.006832786	
   115.000	-0.006912921	
   116.000	-0.006989461	
   117.000	-0.00706246	
   118.000	-0.007131967	
   119.000	-0.007198031	
   120.000	-0.007260697	
   121.000	-0.007320011	
   122.000	-0.007376013	
   123.000	-0.007428745	
   124.000	-0.007478244	
   125.000	-0.007524548	
   126.000	-0.007567691	
   127.000	-0.007607707	
   128.000	-0.007644626	
   129.000	-0.00767848	
   130.000	-0.007709295	
   131.000	-0.007737096	
   132.000	-0.007761908	
   133.000	-0.007783749	
   134.000	-0.00780264	
   135.000	-0.007818603	
   136.000	-0.007831656	
   137.000	-0.007841818	
   138.000	-0.007849108	
   139.000	-0.007853542	
   140.000	-0.007855136	
   141.000	-0.007853903	
   142.000	-0.007849858	
   143.000	-0.007843013	
   144.000	-0.00783338	
   145.000	-0.007820973	
   146.000	-0.007805801	
   147.000	-0.007787878	
   148.000	-0.007767214	
   149.000	-0.007743822	
   150.000	-0.007717715	
   151.000	-0.007688906	
   152.000	-0.007657411	
   153.000	-0.007623247	
   154.000	-0.007586433	
   155.000	-0.007546989	
   156.000	-0.007504939	
   157.000	-0.00746031	
   158.000	-0.007413133	
   159.000	-0.007363443	
   160.000	-0.007311278	
   161.000	-0.007256684	
   162.000	-0.007199716	
   163.000	-0.007140464	
   164.000	-0.00707907	
   165.000	-0.007015674	
   166.000	-0.006950366	
   167.000	-0.006883218	
   168.000	-0.006814307	
   169.000	-0.006743715	
   170.000	-0.006671535	
   171.000	-0.006597869	
   172.000	-0.006522829	
   173.000	-0.006446534	
   174.000	-0.006369108	
   175.000	-0.006290683	
   176.000	-0.006211392	
   177.000	-0.00613137	
   178.000	-0.006050744	
   179.000	-0.005969636	
   180.000	-0.00588815	
   181.000	-0.005806371	
   182.000	-0.00572435	
   183.000	-0.005642098	
   184.000	-0.005559575	
   185.000	-0.005476673	
   186.000	-0.005393203	
   187.000	-0.005308881	
   188.000	-0.00522331	
   189.000	-0.005135964	
   190.000	-0.005046168	
   191.000	-0.004953084	
   192.000	-0.004855701	
   193.000	-0.004752819	
   194.000	-0.004643046	
   195.000	-0.0045248	
   196.000	-0.004396314	
   197.000	-0.004255652	
   198.000	-0.004100738	
   199.000	-0.003929389	
   200.000	-0.003739368	
   201.000	-0.003528449	
   202.000	-0.003294497	
   203.000	-0.003035554	
   204.000	-0.002749946	
   205.000	-0.002436384	
   206.000	-0.002094066	
   207.000	-0.001722759	
   208.000	-0.001322859	
   209.000	-0.0008954121	
   210.000	-0.0004420912	
   211.000	3.486326e-05	
   212.000	0.0005327456	
   213.000	0.00104851	
   214.000	0.00157891	
   215.000	0.002120634	
   216.000	0.002670434	
   217.000	0.003225229	
   218.000	0.00378219	
   219.000	0.004338794	
   220.000	0.004892865	
   221.000	0.005442579	
   222.000	0.005986463	
   223.000	0.006523362	
   224.000	0.007052406	
   225.000	0.007572953	
   226.000	0.008084538	
   227.000	0.008586822	
   228.000	0.009079554	
   229.000	0.009562542	
   230.000	0.01003564	
   231.000	0.01049876	
   232.000	0.01095186	
   233.000	0.01139498	
   234.000	0.01182826	
   235.000	0.01225194	
   236.000	0.01266638	
   237.000	0.01307205	
   238.000	0.01346955	
   239.000	0.01385955	
   240.000	0.01424281	
   241.000	0.01462014	
   242.000	0.01499232	
   243.000	0.01536014	
   244.000	0.01572433	
   245.000	0.01608553	
   246.000	0.0164443	
   247.000	0.01680107	
   248.000	0.01715621	
   249.000	  0.01751	
   250.000	0.01786263	
   251.000	0.01821431	
   252.000	0.01856521	
   253.000	0.01891555	
   254.000	0.01926559	
   255.000	0.01961571	
   256.000	0.01996634	
   257.000	0.02031806	
   258.000	0.02067153	
   259.000	0.02102752	
   260.000	0.02138689	
   261.000	0.02175053	
   262.000	0.0221194	
   263.000	0.0224944	
   264.000	0.02287641	
   265.000	0.02326615	
   266.000	0.02366414	
   267.000	0.02407059	
   268.000	0.0244853	
   269.000	0.02490748	
   270.000	0.02533563	
   271.000	0.0257673	
   272.000	0.02619891	
   273.000	0.02662546	
   274.000	0.0270404	
   275.000	0.02743536	
   276.000	0.02780011	
   277.000	0.02812263	
   278.000	0.02838933	
   279.000	0.02858556	
   280.000	0.02869643	
   281.000	0.02870771	
   282.000	0.02860698	
   283.000	0.02838472	
   284.000	0.0280351	
   285.000	0.02755658	
   286.000	0.02695199	
   287.000	0.02622827	
   288.000	0.02539584	
   289.000	0.02446777	
   290.000	0.02345888	
   291.000	0.02238484	
   292.000	0.02126138	
   293.000	0.0201036	
   294.000	0.01892552	
   295.000	0.0177397	
   296.000	0.01655709	
   297.000	0.01538696	
   298.000	 0.014237	
   299.000	0.01311346	
   300.000	0.0120214	
   301.000	0.01096495	
   302.000	0.009947583	
   303.000	0.008972383	
   304.000	0.008042256	
   305.000	0.007160089	
   306.000	0.006328802	
   307.000	0.005551303	
   308.000	0.004830323	
   309.000	0.004168156	
   310.000	0.00356635	
   311.000	0.003025418	
   312.000	0.002544644	
   313.000	0.002122034	
   314.000	0.001754427	
   315.000	0.001437728	
   316.000	0.001167221	
   317.000	0.0009378899	
   318.000	0.0007446979	
   319.000	0.0005828114	
   320.000	0.0004477476	
   321.000	0.00033546	
   322.000	0.0002423727	
   323.000	0.0001653778	
   324.000	0.0001018087	
   325.000	4.940108e-05	
   326.000	6.246828e-06	
   327.000	-2.925191e-05	
   328.000	-5.842698e-05	
   329.000	-8.238458e-05	
   330.000	-0.0001020409	
   331.000	-0.0001181535	
   332.000	-0.0001313473	
   333.000	-0.000142138	
   334.000	-0.0001509502	
   335.000	-0.0001581339	
   336.000	-0.0001639768	
   337.000	-0.0001687163	
   338.000	-0.0001725474	
   339.000	-0.0001756309	
   340.000	-0.0001780991	
   341.000	-0.0001800609	
   342.000	-0.0001816062	
   343.000	-0.000182809	
   344.000	-0.0001837301	
   345.000	-0.00018442	
   346.000	-0.00018492	
   347.000	-0.0001852644	
   348.000	-0.0001854813	
   349.000	-0.0001855942	
   350.000	-0.0001856222	
   351.000	-0.0001855812	
   352.000	-0.0001854844	
   353.000	-0.0001853425	
   354.000	-0.0001851646	
   355.000	-0.000184958	
   356.000	-0.000184729	
   357.000	-0.0001844824	
   358.000	-0.0001842226	
   359.000	-0.000183953	
   360.000	-0.0001836764	
   361.000	-0.0001833952	
   362.000	-0.0001831113	
   363.000	-0.0001828264	
   364.000	-0.0001825417	
   365.000	-0.0001822585	
   366.000	-0.0001819774	
   367.000	-0.0001816994	
   368.000	-0.0001814249	
   369.000	-0.0001811546	
   370.000	-0.0001808887	
   371.000	-0.0001806276	
   372.000	-0.0001803716	
   373.000	-0.0001801208	
   374.000	-0.0001798754	
   375.000	-0.0001796357	
   376.000	-0.0001794015	
   377.000	-0.0001791731	
   378.000	-0.0001789504	
   379.000	-0.0001787335	
   380.000	-0.0001785225	
   381.000	-0.0001783172	
   382.000	-0.0001781177	
   383.000	-0.0001779241	
   384.000	-0.0001777362	
   385.000	-0.000177554	
   386.000	-0.0001773776	
   387.000	-0.0001772068	
   388.000	-0.0001770416	
   389.000	-0.0001768821	
   390.000	-0.0001767281	
   391.000	-0.0001765796	
   392.000	-0.0001764365	
   393.000	-0.0001762988	
   394.000	-0.0001761665	
   395.000	-0.0001760395	
   396.000	-0.0001759177	
   397.000	-0.0001758011	
   398.000	-0.0001756896	
   399.000	-0.0001755833	
   400.000	-0.0001754819	
   401.000	-0.0001753855	
   402.000	-0.0001752941	
   403.000	-0.0001752075	
   404.000	-0.0001751257	
   405.000	-0.0001750487	
   406.000	-0.0001749764	
   407.000	-0.0001749088	
   408.000	-0.0001748457	
   409.000	-0.0001747872	
   410.000	-0.0001747332	
   411.000	-0.0001746836	
   412.000	-0.0001746384	
   413.000	-0.0001745975	
   414.000	-0.0001745609	
   415.000	-0.0001745286	
   416.000	-0.0001745004	
   417.000	-0.0001744763	
   418.000	-0.0001744563	
   419.000	-0.0001744404	
   420.000	-0.0001744284	
   421.000	-0.0001744203	
   422.000	-0.0001744161	
   423.000	-0.0001744158	
   424.000	-0.0001744192	
   425.000	-0.0001744263	
   426.000	-0.0001744371	
   427.000	-0.0001744515	
   428.000	-0.0001744696	
   429.000	-0.0001744911	
   430.000	-0.0001745162	
   431.000	-0.0001745447	
   432.000	-0.0001745765	
   433.000	-0.0001746118	
   434.000	-0.0001746503	
   435.000	-0.0001746921	
   436.000	-0.0001747371	
   437.000	-0.0001747853	
   438.000	-0.0001748366	
   439.000	-0.000174891	
   440.000	-0.0001749484	
   441.000	-0.0001750089	
   442.000	-0.0001750723	
   443.000	-0.0001751386	
   444.000	-0.0001752077	
   445.000	-0.0001752797	
   446.000	-0.0001753545	
   447.000	-0.0001754321	
   448.000	-0.0001755123	
   449.000	-0.0001755953	
   450.000	-0.0001756808	
   451.000	-0.000175769	
   452.000	-0.0001758597	
   453.000	-0.0001759529	
   454.000	-0.0001760486	
   455.000	-0.0001761467	
   456.000	-0.0001762472	
   457.000	-0.0001763501	
   458.000	-0.0001764554	
   459.000	-0.0001765629	
   460.000	-0.0001766727	
   461.000	-0.0001767847	
   462.000	-0.0001768989	
   463.000	-0.0001770152	
   464.000	-0.0001771337	
   465.000	-0.0001772542	
   466.000	-0.0001773768	
   467.000	-0.0001775014	
   468.000	-0.0001776281	
   469.000	-0.0001777566	
   470.000	-0.0001778871	
   471.000	-0.0001780195	
   472.000	-0.0001781537	
   473.000	-0.0001782898	
   474.000	-0.0001784276	
   475.000	-0.0001785673	
   476.000	-0.0001787086	
   477.000	-0.0001788517	
   478.000	-0.0001789964	
   479.000	-0.0001791428	
   480.000	-0.0001792908	
   481.000	-0.0001794404	
   482.000	-0.0001795916	
   483.000	-0.0001797443	
   484.000	-0.0001798985	
   485.000	-0.0001800542	
   486.000	-0.0001802113	
   487.000	-0.0001803699	
   488.000	-0.0001805298	
   489.000	-0.0001806912	
   490.000	-0.0001808538	
   491.000	-0.0001810178	
   492.000	-0.0001811831	
   493.000	-0.0001813497	
   494.000	-0.0001815175	
   495.000	-0.0001816866	
   496.000	-0.0001818568	
   497.000	-0.0001820282	
   498.000	-0.0001822008	
   499.000	-0.0001823745	
   500.000	-0.0001825493	
   501.000	-0.0001827252	
   502.000	-0.0001829021	
   503.000	-0.0001830801	
   504.000	-0.0001832591	
   505.000	-0.0001834391	
   506.000	-0.0001836201	
   507.000	-0.000183802	
   508.000	-0.0001839849	
   509.000	-0.0001841686	
   510.000	-0.0001843533	
   511.000	-0.0001845388	
   512.000	-0.0001847252	
   513.000	-0.0001849124	
   514.000	-0.0001851004	
   515.000	-0.0001852892	
   516.000	-0.0001854788	
   517.000	-0.0001856691	
   518.000	-0.0001858601	
   519.000	-0.0001860519	
   520.000	-0.0001862444	
   521.000	-0.0001864376	
   522.000	-0.0001866314	
   523.000	-0.0001868259	
   524.000	-0.000187021	
   525.000	-0.0001872167	
   526.000	-0.000187413	
   527.000	-0.0001876099	
   528.000	-0.0001878073	
   529.000	-0.0001880053	
   530.000	-0.0001882038	
   531.000	-0.0001884028	
   532.000	-0.0001886024	
   533.000	-0.0001888024	
   534.000	-0.0001890029	
   535.000	-0.0001892038	
   536.000	-0.0001894052	
   537.000	-0.000189607	
   538.000	-0.0001898092	
   539.000	-0.0001900118	
   540.000	-0.0001902148	
   541.000	-0.0001904182	
   542.000	-0.0001906219	
   543.000	-0.0001908259	
   544.000	-0.0001910303	
   545.000	-0.000191235	
   546.000	-0.00019144	
   547.000	-0.0001916452	
   548.000	-0.0001918508	
   549.000	-0.0001920566	
   550.000	-0.0001922627	
   551.000	-0.000192469	
   552.000	-0.0001926755	
   553.000	-0.0001928822	
   554.000	-0.0001930892	
   555.000	-0.0001932963	
   556.000	-0.0001935036	
   557.000	-0.0001937111	
   558.000	-0.0001939188	
   559.000	-0.0001941266	
   560.000	-0.0001943345	
   561.000	-0.0001945426	
   562.000	-0.0001947507	
   563.000	-0.000194959	
   564.000	-0.0001951674	
   565.000	-0.0001953758	
   566.000	-0.0001955844	
   567.000	-0.000195793	
   568.000	-0.0001960016	
   569.000	-0.0001962103	
   570.000	-0.000196419	
   571.000	-0.0001966278	
   572.000	-0.0001968366	
   573.000	-0.0001970454	
   574.000	-0.0001972542	
   575.000	-0.000197463	
   576.000	-0.0001976717	
   577.000	-0.0001978805	
   578.000	-0.0001980892	
   579.000	-0.0001982978	
   580.000	-0.0001985065	
   581.000	-0.000198715	
   582.000	-0.0001989235	
   583.000	-0.000199132	
   584.000	-0.0001993403	
   585.000	-0.0001995486	
   586.000	-0.0001997567	
   587.000	-0.0001999648	
   588.000	-0.0002001728	
   589.000	-0.0002003806	
   590.000	-0.0002005883	
   591.000	-0.0002007959	
   592.000	-0.0002010033	
   593.000	-0.0002012106	
   594.000	-0.0002014178	
   595.000	-0.0002016248	
   596.000	-0.0002018316	
   597.000	-0.0002020383	
   598.000	-0.0002022448	
   599.000	-0.0002024511	
   600.000	-0.0002026572	
   601.000	-0.0002028632	
   602.000	-0.0002030689	
   603.000	-0.0002032744	
   604.000	-0.0002034798	
   605.000	-0.0002036849	
   606.000	-0.0002038898	
   607.000	-0.0002040944	
   608.000	-0.0002042988	
   609.000	-0.000204503	
   610.000	-0.000204707	
   611.000	-0.0002049107	
   612.000	-0.0002051142	
   613.000	-0.0002053174	
   614.000	-0.0002055203	
   615.000	-0.000205723	
   616.000	-0.0002059254	
   617.000	-0.0002061275	
   618.000	-0.0002063294	
   619.000	-0.000206531	
   620.000	-0.0002067323	
   621.000	-0.0002069333	
   622.000	-0.000207134	
   623.000	-0.0002073344	
   624.000	-0.0002075345	
   625.000	-0.0002077343	
   626.000	-0.0002079338	
   627.000	-0.0002081329	
   628.000	-0.0002083318	
   629.000	-0.0002085303	
   630.000	-0.0002087285	
   631.000	-0.0002089264	
   632.000	-0.000209124	
   633.000	-0.0002093212	
   634.000	-0.0002095181	
   635.000	-0.0002097146	
   636.000	-0.0002099108	
   637.000	-0.0002101067	
   638.000	-0.0002103022	
   639.000	-0.0002104973	
   640.000	-0.0002106921	
   641.000	-0.0002108865	
   642.000	-0.0002110806	
   643.000	-0.0002112743	
   644.000	-0.0002114676	
   645.000	-0.0002116606	
   646.000	-0.0002118532	
   647.000	-0.0002120454	
   648.000	-0.0002122373	
   649.000	-0.0002124288	
   650.000	-0.0002126198	
   651.000	-0.0002128105	
   652.000	-0.0002130009	
   653.000	-0.0002131908	
   654.000	-0.0002133803	
   655.000	-0.0002135695	
   656.000	-0.0002137582	
   657.000	-0.0002139466	
   658.000	-0.0002141345	
   659.000	-0.0002143221	
   660.000	-0.0002145093	
   661.000	-0.000214696	
   662.000	-0.0002148824	
   663.000	-0.0002150683	
   664.000	-0.0002152538	
   665.000	-0.0002154389	
   666.000	-0.0002156236	
   667.000	-0.0002158079	
   668.000	-0.0002159918	
   669.000	-0.0002161753	
   670.000	-0.0002163583	
   671.000	-0.000216541	
   672.000	-0.0002167232	
   673.000	-0.0002169049	
   674.000	-0.0002170863	
   675.000	-0.0002172672	
   676.000	-0.0002174478	
   677.000	-0.0002176278	
   678.000	-0.0002178075	
   679.000	-0.0002179867	
   680.000	-0.0002181655	
   681.000	-0.0002183439	
   682.000	-0.0002185218	
   683.000	-0.0002186993	
   684.000	-0.0002188764	
   685.000	-0.000219053	
   686.000	-0.0002192292	
   687.000	-0.000219405	
   688.000	-0.0002195803	
   689.000	-0.0002197552	
   690.000	-0.0002199297	
   691.000	-0.0002201037	
   692.000	-0.0002202773	
   693.000	-0.0002204504	
   694.000	-0.0002206231	
   695.000	-0.0002207953	
   696.000	-0.0002209671	
   697.000	-0.0002211385	
   698.000	-0.0002213094	
   699.000	-0.0002214799	
   700.000	-0.00022165	
   701.000	-0.0002218195	
   702.000	-0.0002219887	
   703.000	-0.0002221574	
   704.000	-0.0002223257	
   705.000	-0.0002224935	
   706.000	-0.0002226608	
   707.000	-0.0002228278	
   708.000	-0.0002229942	
   709.000	-0.0002231603	
   710.000	-0.0002233258	
   711.000	-0.000223491	
   712.000	-0.0002236557	
   713.000	-0.0002238199	
   714.000	-0.0002239837	
   715.000	-0.000224147	
   716.000	-0.0002243099	
   717.000	-0.0002244724	
   718.000	-0.0002246344	
   719.000	-0.000224796	
   720.000	-0.0002249571	
   721.000	-0.0002251177	
   722.000	-0.000225278	
   723.000	-0.0002254377	
   724.000	-0.000225597	
   725.000	-0.0002257559	
   726.000	-0.0002259143	
   727.000	-0.0002260723	
   728.000	-0.0002262299	
   729.000	-0.000226387	
   730.000	-0.0002265436	
   731.000	-0.0002266998	
   732.000	-0.0002268556	
   733.000	-0.0002270109	
   734.000	-0.0002271657	
   735.000	-0.0002273201	
   736.000	-0.0002274741	
   737.000	-0.0002276276	
   738.000	-0.0002277807	
   739.000	-0.0002279334	
   740.000	-0.0002280856	
   741.000	-0.0002282373	
   742.000	-0.0002283887	
   743.000	-0.0002285395	
   744.000	-0.00022869	
   745.000	-0.00022884	
   746.000	-0.0002289895	
   747.000	-0.0002291386	
   748.000	-0.0002292873	
   749.000	-0.0002294355	
   750.000	-0.0002295833	
   751.000	-0.0002297307	
   752.000	-0.0002298776	
   753.000	-0.0002300241	
   754.000	-0.0002301701	
   755.000	-0.0002303157	
   756.000	-0.0002304609	
   757.000	-0.0002306056	
   758.000	-0.0002307499	
   759.000	-0.0002308938	
   760.000	-0.0002310373	
   761.000	-0.0002311803	
   762.000	-0.0002313228	
   763.000	-0.000231465	
   764.000	-0.0002316067	
   765.000	-0.000231748	
   766.000	-0.0002318888	
   767.000	-0.0002320292	
   768.000	-0.0002321692	
   769.000	-0.0002323088	
   770.000	-0.000232448	
   771.000	-0.0002325867	
   772.000	-0.000232725	
   773.000	-0.0002328628	
   774.000	-0.0002330003	
   775.000	-0.0002331373	
   776.000	-0.0002332739	
   777.000	-0.0002334101	
   778.000	-0.0002335458	
   779.000	-0.0002336812	
   780.000	-0.0002338161	
   781.000	-0.0002339506	
   782.000	-0.0002340847	
   783.000	-0.0002342183	
   784.000	-0.0002343516	
   785.000	-0.0002344844	
   786.000	-0.0002346168	
   787.000	-0.0002347488	
   788.000	-0.0002348804	
   789.000	-0.0002350116	
   790.000	-0.0002351424	
   791.000	-0.0002352727	
   792.000	-0.0002354027	
   793.000	-0.0002355322	
   794.000	-0.0002356614	
   795.000	-0.0002357901	
   796.000	-0.0002359184	
   797.000	-0.0002360463	
   798.000	-0.0002361738	
   799.000	-0.0002363009	
   800.000	-0.0002364276	
   801.000	-0.0002365539	
   802.000	-0.0002366798	
   803.000	-0.0002368053	
   804.000	-0.0002369305	
   805.000	-0.0002370552	
   806.000	-0.0002371795	
   807.000	-0.0002373034	
   808.000	-0.0002374269	
   809.000	-0.00023755	
   810.000	-0.0002376727	
   811.000	-0.0002377951	
   812.000	-0.000237917	
   813.000	-0.0002380386	
   814.000	-0.0002381597	
   815.000	-0.0002382805	
   816.000	-0.0002384009	
   817.000	-0.0002385209	
   818.000	-0.0002386405	
   819.000	-0.0002387597	
   820.000	-0.0002388785	
   821.000	-0.000238997	
   822.000	-0.0002391151	
   823.000	-0.0002392328	
   824.000	-0.0002393501	
   825.000	-0.000239467	
   826.000	-0.0002395836	
   827.000	-0.0002396997	
   828.000	-0.0002398155	
   829.000	-0.000239931	
   830.000	-0.000240046	
   831.000	-0.0002401607	
   832.000	-0.000240275	
   833.000	-0.0002403889	
   834.000	-0.0002405025	
   835.000	-0.0002406156	
   836.000	-0.0002407285	
   837.000	-0.0002408409	
   838.000	-0.000240953	
   839.000	-0.0002410647	
   840.000	-0.0002411761	
   841.000	-0.000241287	
   842.000	-0.0002413977	
   843.000	-0.0002415079	
   844.000	-0.0002416178	
   845.000	-0.0002417274	
   846.000	-0.0002418365	
   847.000	-0.0002419454	
   848.000	-0.0002420538	
   849.000	-0.0002421619	
   850.000	-0.0002422697	
   851.000	-0.0002423771	
   852.000	-0.0002424841	
   853.000	-0.0002425908	
   854.000	-0.0002426971	
   855.000	-0.0002428031	
   856.000	-0.0002429087	
   857.000	-0.000243014	
   858.000	-0.000243119	
   859.000	-0.0002432236	
   860.000	-0.0002433278	
   861.000	-0.0002434317	
   862.000	-0.0002435353	
   863.000	-0.0002436385	
   864.000	-0.0002437414	
   865.000	-0.0002438439	
   866.000	-0.0002439461	
   867.000	-0.0002440479	
   868.000	-0.0002441494	
   869.000	-0.0002442506	
   870.000	-0.0002443515	
   871.000	-0.000244452	
   872.000	-0.0002445521	
   873.000	-0.000244652	
   874.000	-0.0002447515	
   875.000	-0.0002448506	
   876.000	-0.0002449495	
   877.000	-0.000245048	
   878.000	-0.0002451462	
   879.000	-0.000245244	
   880.000	-0.0002453416	
   881.000	-0.0002454388	
   882.000	-0.0002455357	
   883.000	-0.0002456322	
   884.000	-0.0002457284	
   885.000	-0.0002458244	
   886.000	-0.0002459199	
   887.000	-0.0002460152	
   888.000	-0.0002461102	
   889.000	-0.0002462048	
   890.000	-0.0002462991	
   891.000	-0.0002463931	
   892.000	-0.0002464868	
   893.000	-0.0002465802	
   894.000	-0.0002466732	
   895.000	-0.000246766	
   896.000	-0.0002468584	
   897.000	-0.0002469505	
   898.000	-0.0002470424	
   899.000	-0.0002471339	
   900.000	-0.0002472251	
   901.000	-0.000247316	
   902.000	-0.0002474065	
   903.000	-0.0002474968	
   904.000	-0.0002475868	
   905.000	-0.0002476765	
   906.000	-0.0002477658	
   907.000	-0.0002478549	
   908.000	-0.0002479437	
   909.000	-0.0002480322	
   910.000	-0.0002481203	
   911.000	-0.0002482082	
   912.000	-0.0002482958	
   913.000	-0.0002483831	
   914.000	-0.0002484701	
   915.000	-0.0002485568	
   916.000	-0.0002486432	
   917.000	-0.0002487293	
   918.000	-0.0002488151	
   919.000	-0.0002489006	
   920.000	-0.0002489859	
   921.000	-0.0002490708	
   922.000	-0.0002491555	
   923.000	-0.0002492399	
   924.000	-0.000249324	
   925.000	-0.0002494078	
   926.000	-0.0002494913	
   927.000	-0.0002495745	
   928.000	-0.0002496575	
   929.000	-0.0002497402	
   930.000	-0.0002498226	
   931.000	-0.0002499047	
   932.000	-0.0002499865	
   933.000	-0.0002500681	
   934.000	-0.0002501494	
   935.000	-0.0002502304	
   936.000	-0.0002503111	
   937.000	-0.0002503916	
   938.000	-0.0002504718	
   939.000	-0.0002505517	
   940.000	-0.0002506313	
   941.000	-0.0002507107	
   942.000	-0.0002507898	
   943.000	-0.0002508687	
   944.000	-0.0002509472	
   945.000	-0.0002510255	
   946.000	-0.0002511036	
   947.000	-0.0002511813	
   948.000	-0.0002512588	
   949.000	-0.0002513361	
   950.000	-0.000251413	
   951.000	-0.0002514898	
   952.000	-0.0002515662	
   953.000	-0.0002516424	
   954.000	-0.0002517183	
   955.000	-0.000251794	
   956.000	-0.0002518694	
   957.000	-0.0002519446	
   958.000	-0.0002520195	
   959.000	-0.0002520941	
   960.000	-0.0002521685	
   961.000	-0.0002522427	
   962.000	-0.0002523166	
   963.000	-0.0002523902	
   964.000	-0.0002524636	
   965.000	-0.0002525367	
   966.000	-0.0002526096	
   967.000	-0.0002526822	
   968.000	-0.0002527546	
   969.000	-0.0002528268	
   970.000	-0.0002528986	
   971.000	-0.0002529703	
   972.000	-0.0002530417	
   973.000	-0.0002531129	
   974.000	-0.0002531838	
   975.000	-0.0002532544	
   976.000	-0.0002533249	
   977.000	-0.0002533951	
   978.000	-0.000253465	
   979.000	-0.0002535347	
   980.000	-0.0002536042	
   981.000	-0.0002536734	
   982.000	-0.0002537424	
   983.000	-0.0002538112	
   984.000	-0.0002538797	
   985.000	-0.000253948	
   986.000	-0.000254016	
   987.000	-0.0002540839	
   988.000	-0.0002541515	
   989.000	-0.0002542188	
   990.000	-0.0002542859	
   991.000	-0.0002543528	
   992.000	-0.0002544195	
   993.000	-0.0002544859	
   994.000	-0.0002545522	
   995.000	-0.0002546181	
   996.000	-0.0002546839	
   997.000	-0.0002547494	
   998.000	-0.0002548147	
   999.000	-0.0002548798	
  1000.000	-0.0002549447	
  1001.000	-0.0002279599	
  1002.000	0.001346683	
  1003.000	0.01323216	
  1004.000	0.06602949	
  1005.000	0.08422357	
  1006.000	0.0923346	
  1007.000	0.09808707	
  1008.000	 0.102526	
  1009.000	0.1062341	
  1010.000	0.1095396	
  1011.000	0.1126409	
  1012.000	0.1156559	
  1013.000	0.1186587	
  1014.000	0.1216854	
  1015.000	0.1247618	
  1016.000	0.1278935	
  1017.000	0.1310589	
  1018.000	0.1343079	
  1019.000	0.1377302	
  1020.000	0.1412715	
  1021.000	0.1448789	
  1022.000	 0.148546	
  1023.000	0.1522838	
  1024.000	 0.156108	
  1025.000	0.1600404	
  1026.000	0.1640913	
  1027.000	 0.168279	
  1028.000	0.1726149	
  1029.000	 0.177101	
  1030.000	0.1817558	
  1031.000	0.1866136	
  1032.000	0.1914957	
  1033.000	0.1964785	
  1034.000	0.2016347	
  1035.000	0.2070178	
  1036.000	0.2126298	
  1037.000	0.2184699	
  1038.000	0.2245129	
  1039.000	 0.230562	
  1040.000	0.2358033	
  1041.000	0.2368429	
  1042.000	0.2203192	
  1043.000	0.1398538	
  1044.000	0.05896572	
  1045.000	0.03973653	
  1046.000	0.02820179	
  1047.000	0.02187194	
  1048.000	0.01830051	
  1049.000	0.01595978	
  1050.000	0.01460195	
  1051.000	 0.013837	
  1052.000	0.01331535	
  1053.000	0.01285193	
  1054.000	0.0123617	
  1055.000	0.01181245	
  1056.000	0.01120089	
  1057.000	0.01053843	
  1058.000	0.009841888	
  1059.000	0.009128173	
  1060.000	0.008411827	
  1061.000	0.007704219	
  1062.000	0.007013625	
  1063.000	0.006345661	
  1064.000	0.005703814	
  1065.000	0.005089948	
  1066.000	0.004504741	
  1067.000	0.003948036	
  1068.000	0.003419118	
  1069.000	0.002916908	
  1070.000	0.002440116	
  1071.000	0.001987343	
  1072.000	0.001557151	
  1073.000	0.001148114	
  1074.000	0.0007588491	
  1075.000	0.0003880353	
  1076.000	3.44277e-05	
  1077.000	-0.0003031378	
  1078.000	-0.0006257427	
  1079.000	-0.0009343861	
  1080.000	-0.001229988	
  1081.000	-0.00151339	
  1082.000	-0.001785366	
  1083.000	-0.00204662	
  1084.000	-0.002297794	
  1085.000	-0.002539474	
  1086.000	-0.002772192	
  1087.000	-0.002996432	
  1088.000	-0.003212635	
  1089.000	-0.003421202	
  1090.000	-0.003622496	
  1091.000	-0.003816848	
  1092.000	-0.004004562	
  1093.000	-0.004185911	
  1094.000	-0.004361146	
  1095.000	-0.004530496	
  1096.000	-0.004694171	
  1097.000	-0.004852363	
  1098.000	-0.005005248	
  1099.000	-0.005152988	
  1100.000	-0.005295731	
  1101.000	-0.005433617	
  1102.000	-0.005566772	
  1103.000	-0.005695314	
  1104.000	-0.005819355	
  1105.000	-0.005938997	
  1106.000	-0.006054335	
  1107.000	-0.006165461	
  1108.000	-0.006272457	
  1109.000	-0.006375405	
  1110.000	-0.006474379	
  1111.000	-0.006569451	
  1112.000	-0.006660687	
  1113.000	-0.006748153	
  1114.000	-0.006831908	
  1115.000	-0.006912011	
  1116.000	-0.006988518	
  1117.000	-0.007061481	
  1118.000	-0.00713095	
  1119.000	-0.007196974	
  1120.000	-0.0072596	
  1121.000	-0.00731887	
  1122.000	-0.007374828	
  1123.000	-0.007427513	
  1124.000	-0.007476964	
  1125.000	-0.007523218	
  1126.000	-0.00756631	
  1127.000	-0.007606272	
  1128.000	-0.007643137	
  1129.000	-0.007676934	
  1130.000	-0.007707691	
  1131.000	-0.007735434	
  1132.000	-0.007760185	
  1133.000	-0.007781964	
  1134.000	-0.007800792	
  1135.000	-0.007816689	
  1136.000	-0.007829676	
  1137.000	-0.007839772	
  1138.000	-0.007846993	
  1139.000	-0.007851357	
  1140.000	-0.007852879	
  1141.000	-0.007851574	
  1142.000	-0.007847455	
  1143.000	-0.007840535	
  1144.000	-0.007830827	
  1145.000	-0.007818342	
  1146.000	-0.007803092	
  1147.000	-0.007785089	
  1148.000	-0.007764344	
  1149.000	-0.007740871	
  1150.000	-0.007714681	
  1151.000	-0.007685788	
  1152.000	-0.007654208	
  1153.000	-0.007619958	
  1154.000	-0.007583056	
  1155.000	-0.007543523	
  1156.000	-0.007501383	
  1157.000	-0.007456663	
  1158.000	-0.007409393	
  1159.000	-0.007359609	
  1160.000	-0.007307348	
  1161.000	-0.007252657	
  1162.000	-0.00719559	
  1163.000	-0.007136237	
  1164.000	-0.00707474	
  1165.000	-0.007011238	
  1166.000	-0.006945821	
  1167.000	-0.006878563	
  1168.000	-0.006809539	
  1169.000	-0.006738831	
  1170.000	-0.006666533	
  1171.000	-0.006592746	
  1172.000	-0.006517581	
  1173.000	-0.006441157	
  1174.000	-0.006363599	
  1175.000	-0.006285038	
  1176.000	-0.006205608	
  1177.000	-0.006125442	
  1178.000	-0.006044669	
  1179.000	-0.00596341	
  1180.000	-0.00588177	
  1181.000	-0.005799832	
  1182.000	-0.005717651	
  1183.000	-0.005635238	
  1184.000	-0.005552552	
  1185.000	-0.005469488	
  1186.000	-0.005385858	
  1187.000	-0.00530138	
  1188.000	-0.00521566	
  1189.000	-0.005128174	
  1190.000	-0.005038248	
  1191.000	-0.004945051	
  1192.000	-0.00484757	
  1193.000	-0.004744612	
  1194.000	-0.004634787	
  1195.000	-0.004516516	
  1196.000	-0.004388034	
  1197.000	-0.004247409	
  1198.000	-0.004092564	
  1199.000	-0.003921319	
  1200.000	-0.003731437	
  1201.000	-0.003520691	
  1202.000	-0.003286943	
  1203.000	-0.003028235	
  1204.000	-0.002742886	
  1205.000	-0.002429604	
  1206.000	-0.002087579	
  1207.000	-0.001716573	
  1208.000	-0.001316973	
  1209.000	-0.0008898188	
  1210.000	-0.0004367765	
  1211.000	3.991926e-05	
  1212.000	0.0005375675	
  1213.000	0.001053126	
  1214.000	0.001583348	
  1215.000	0.002124925	
  1216.000	0.002674607	
  1217.000	0.003229311	
  1218.000	0.003786205	
  1219.000	0.004342765	
  1220.000	0.004896808	
  1221.000	0.00544651	
  1222.000	0.005990393	
  1223.000	0.006527301	
  1224.000	0.00705636	
  1225.000	0.007576926	
  1226.000	0.008088534	
  1227.000	0.008590844	
  1228.000	0.009083605	
  1229.000	0.009566624	
  1230.000	0.01003976	
  1231.000	0.01050291	
  1232.000	0.01095605	
  1233.000	0.01139921	
  1234.000	0.01183253	
  1235.000	0.01225626	
  1236.000	0.01267074	
  1237.000	0.01307645	
  1238.000	0.01347399	
  1239.000	0.01386403	
  1240.000	0.01424734	
  1241.000	0.0146247	
  1242.000	0.01499692	
  1243.000	0.01536477	
  1244.000	0.01572899	
  1245.000	0.01609022	
  1246.000	0.01644901	
  1247.000	0.0168058	
  1248.000	0.01716097	
  1249.000	0.01751477	
  1250.000	0.01786743	
  1251.000	0.01821912	
  1252.000	0.01857004	
  1253.000	0.01892039	
  1254.000	0.01927045	
  1255.000	0.01962057	
  1256.000	0.01997121	
  1257.000	0.02032293	
  1258.000	0.0206764	
  1259.000	0.02103238	
  1260.000	0.02139173	
  1261.000	0.02175536	
  1262.000	0.0221242	
  1263.000	0.02249917	
  1264.000	0.02288115	
  1265.000	0.02327085	
  1266.000	0.0236688	
  1267.000	0.02407521	
  1268.000	0.02448988	
  1269.000	0.02491204	
  1270.000	0.02534017	
  1271.000	0.02577184	
  1272.000	0.02620347	
  1273.000	0.02663008	
  1274.000	0.02704511	
  1275.000	0.02744021	
  1276.000	0.02780517	
  1277.000	0.02812796	
  1278.000	 0.028395	
  1279.000	0.02859166	
  1280.000	0.02870303	
  1281.000	0.02871487	
  1282.000	0.02861477	
  1283.000	0.02839316	
  1284.000	0.0280442	
  1285.000	0.02756633	
  1286.000	0.02696234	
  1287.000	0.02623916	
  1288.000	0.02540719	
  1289.000	0.02447948	
  1290.000	0.02347084	
  1291.000	0.02239696	
  1292.000	0.02127354	
  1293.000	0.02011571	
  1294.000	0.0189375	
  1295.000	0.01775148	
  1296.000	0.0165686	
  1297.000	0.01539816	
  1298.000	0.01424785	
  1299.000	0.01312394	
  1300.000	0.01203149	
  1301.000	0.01097463	
  1302.000	0.009956839	
  1303.000	0.008981201	
  1304.000	0.008050621	
  1305.000	0.007167979	
  1306.000	0.006336196	
  1307.000	0.005558177	
  1308.000	0.004836652	
  1309.000	0.00417392	
  1310.000	0.003571536	
  1311.000	0.003030025	
  1312.000	0.002548681	
  1313.000	0.002125524	
  1314.000	0.001757403	
  1315.000	0.00144023	
  1316.000	0.001169297	
  1317.000	0.0009395866	
  1318.000	0.0007460635	
  1319.000	0.0005838912	
  1320.000	0.0004485831	
  1321.000	0.0003360886	
  1322.000	0.0002428272	
  1323.000	0.0001656865	
  1324.000	0.000101996	
  1325.000	4.948749e-05	
  1326.000	6.24966e-06	
  1327.000	-2.931817e-05	
  1328.000	-5.855027e-05	
  1329.000	-8.255488e-05	
  1330.000	-0.00010225	
  1331.000	-0.0001183944	
  1332.000	-0.0001316144	
  1333.000	-0.0001424267	
  1334.000	-0.0001512567	
  1335.000	-0.0001584549	
  1336.000	-0.0001643098	
  1337.000	-0.0001690591	
  1338.000	-0.0001728984	
  1339.000	-0.0001759885	
  1340.000	-0.0001784621	
  1341.000	-0.0001804284	
  1342.000	-0.0001819774	
  1343.000	-0.0001831831	
  1344.000	-0.0001841068	
  1345.000	-0.0001847986	
  1346.000	-0.0001853003	
  1347.000	-0.000185646	
  1348.000	-0.000185864	
  1349.000	-0.0001859778	
  1350.000	-0.0001860065	
  1351.000	-0.000185966	
  1352.000	-0.0001858696	
  1353.000	-0.0001857281	
  1354.000	-0.0001855505	
  1355.000	-0.0001853441	
  1356.000	-0.0001851152	
  1357.000	-0.0001848688	
  1358.000	-0.000184609	
  1359.000	-0.0001843394	
  1360.000	-0.0001840628	
  1361.000	-0.0001837816	
  1362.000	-0.0001834977	
  1363.000	-0.0001832127	
  1364.000	-0.000182928	
  1365.000	-0.0001826446	
  1366.000	-0.0001823635	
  1367.000	-0.0001820853	
  1368.000	-0.0001818108	
  1369.000	-0.0001815403	
  1370.000	-0.0001812743	
  1371.000	-0.0001810131	
  1372.000	-0.0001807569	
  1373.000	-0.000180506	
  1374.000	-0.0001802605	
  1375.000	-0.0001800206	
  1376.000	-0.0001797863	
  1377.000	-0.0001795577	
  1378.000	-0.0001793349	
  1379.000	-0.0001791179	
  1380.000	-0.0001789067	
  1381.000	-0.0001787013	
  1382.000	-0.0001785017	
  1383.000	-0.0001783078	
  1384.000	-0.0001781198	
  1385.000	-0.0001779375	
  1386.000	-0.0001777609	
  1387.000	-0.0001775899	
  1388.000	-0.0001774246	
  1389.000	-0.0001772649	
  1390.000	-0.0001771107	
  1391.000	-0.000176962	
  1392.000	-0.0001768188	
  1393.000	-0.000176681	
  1394.000	-0.0001765485	
  1395.000	-0.0001764213	
  1396.000	-0.0001762993	
  1397.000	-0.0001761826	
  1398.000	-0.000176071	
  1399.000	-0.0001759644	
  1400.000	-0.0001758629	
  1401.000	-0.0001757664	
  1402.000	-0.0001756747	
  1403.000	-0.000175588	
  1404.000	-0.000175506	
  1405.000	-0.0001754289	
  1406.000	-0.0001753564	
  1407.000	-0.0001752886	
  1408.000	-0.0001752253	
  1409.000	-0.0001751666	
  1410.000	-0.0001751124	
  1411.000	-0.0001750627	
  1412.000	-0.0001750173	
  1413.000	-0.0001749763	
  1414.000	-0.0001749395	
  1415.000	-0.000174907	
  1416.000	-0.0001748786	
  1417.000	-0.0001748544	
  1418.000	-0.0001748342	
  1419.000	-0.0001748181	
  1420.000	-0.0001748059	
  1421.000	-0.0001747977	
  1422.000	-0.0001747933	
  1423.000	-0.0001747928	
  1424.000	-0.000174796	
  1425.000	-0.000174803	
  1426.000	-0.0001748136	
  1427.000	-0.0001748279	
  1428.000	-0.0001748457	
  1429.000	-0.0001748671	
  1430.000	-0.000174892	
  1431.000	-0.0001749203	
  1432.000	-0.000174952	
  1433.000	-0.0001749871	
  1434.000	-0.0001750254	
  1435.000	-0.0001750671	
  1436.000	-0.0001751119	
  1437.000	-0.0001751599	
  1438.000	-0.000175211	
  1439.000	-0.0001752653	
  1440.000	-0.0001753225	
  1441.000	-0.0001753828	
  1442.000	-0.000175446	
  1443.000	-0.0001755121	
  1444.000	-0.0001755811	
  1445.000	-0.000175653	
  1446.000	-0.0001757276	
  1447.000	-0.000175805	
  1448.000	-0.000175885	
  1449.000	-0.0001759678	
  1450.000	-0.0001760532	
  1451.000	-0.0001761411	
  1452.000	-0.0001762317	
  1453.000	-0.0001763247	
  1454.000	-0.0001764202	
  1455.000	-0.0001765182	
  1456.000	-0.0001766186	
  1457.000	-0.0001767213	
  1458.000	-0.0001768264	
  1459.000	-0.0001769337	
  1460.000	-0.0001770433	
  1461.000	-0.0001771552	
  1462.000	-0.0001772692	
  1463.000	-0.0001773854	
  1464.000	-0.0001775037	
  1465.000	-0.000177624	
  1466.000	-0.0001777465	
  1467.000	-0.0001778709	
  1468.000	-0.0001779974	
  1469.000	-0.0001781258	
  1470.000	-0.0001782561	
  1471.000	-0.0001783883	
  1472.000	-0.0001785224	
  1473.000	-0.0001786583	
  1474.000	-0.000178796	
  1475.000	-0.0001789354	
  1476.000	-0.0001790766	
  1477.000	-0.0001792195	
  1478.000	-0.0001793641	
  1479.000	-0.0001795103	
  1480.000	-0.0001796582	
  1481.000	-0.0001798076	
  1482.000	-0.0001799586	
  1483.000	-0.0001801112	
  1484.000	-0.0001802652	
  1485.000	-0.0001804207	
  1486.000	-0.0001805777	
  1487.000	-0.0001807361	
  1488.000	-0.0001808959	
  1489.000	-0.0001810571	
  1490.000	-0.0001812196	
  1491.000	-0.0001813834	
  1492.000	-0.0001815486	
  1493.000	-0.000181715	
  1494.000	-0.0001818827	
  1495.000	-0.0001820515	
  1496.000	-0.0001822216	
  1497.000	-0.0001823929	
  1498.000	-0.0001825653	
  1499.000	-0.0001827388	
  1500.000	-0.0001829135	
  1501.000	-0.0001830892	
  1502.000	-0.000183266	
  1503.000	-0.0001834438	
  1504.000	-0.0001836227	
  1505.000	-0.0001838025	
  1506.000	-0.0001839833	
  1507.000	-0.0001841651	
  1508.000	-0.0001843478	
  1509.000	-0.0001845314	
  1510.000	-0.0001847159	
  1511.000	-0.0001849013	
  1512.000	-0.0001850875	
  1513.000	-0.0001852745	
  1514.000	-0.0001854624	
  1515.000	-0.0001856511	
  1516.000	-0.0001858405	
  1517.000	-0.0001860307	
  1518.000	-0.0001862216	
  1519.000	-0.0001864132	
  1520.000	-0.0001866055	
  1521.000	-0.0001867986	
  1522.000	-0.0001869922	
  1523.000	-0.0001871866	
  1524.000	-0.0001873815	
  1525.000	-0.0001875771	
  1526.000	-0.0001877732	
  1527.000	-0.00018797	
  1528.000	-0.0001881673	
  1529.000	-0.0001883651	
  1530.000	-0.0001885635	
  1531.000	-0.0001887624	
  1532.000	-0.0001889618	
  1533.000	-0.0001891616	
  1534.000	-0.000189362	
  1535.000	-0.0001895628	
  1536.000	-0.000189764	
  1537.000	-0.0001899657	
  1538.000	-0.0001901677	
  1539.000	-0.0001903702	
  1540.000	-0.000190573	
  1541.000	-0.0001907763	
  1542.000	-0.0001909798	
  1543.000	-0.0001911837	
  1544.000	-0.000191388	
  1545.000	-0.0001915925	
  1546.000	-0.0001917974	
  1547.000	-0.0001920025	
  1548.000	-0.0001922079	
  1549.000	-0.0001924136	
  1550.000	-0.0001926195	
  1551.000	-0.0001928257	
  1552.000	-0.0001930321	
  1553.000	-0.0001932387	
  1554.000	-0.0001934455	
  1555.000	-0.0001936525	
  1556.000	-0.0001938597	
  1557.000	-0.000194067	
  1558.000	-0.0001942745	
  1559.000	-0.0001944822	
  1560.000	-0.00019469	
  1561.000	-0.0001948979	
  1562.000	-0.000195106	
  1563.000	-0.0001953141	
  1564.000	-0.0001955223	
  1565.000	-0.0001957307	
  1566.000	-0.0001959391	
  1567.000	-0.0001961475	
  1568.000	-0.000196356	
  1569.000	-0.0001965646	
  1570.000	-0.0001967732	
  1571.000	-0.0001969818	
  1572.000	-0.0001971905	
  1573.000	-0.0001973992	
  1574.000	-0.0001976078	
  1575.000	-0.0001978165	
  1576.000	-0.0001980251	
  1577.000	-0.0001982337	
  1578.000	-0.0001984423	
  1579.000	-0.0001986509	
  1580.000	-0.0001988594	
  1581.000	-0.0001990678	
  1582.000	-0.0001992762	
  1583.000	-0.0001994845	
  1584.000	-0.0001996927	
  1585.000	-0.0001999008	
  1586.000	-0.0002001089	
  1587.000	-0.0002003168	
  1588.000	-0.0002005247	
  1589.000	-0.0002007324	
  1590.000	-0.00020094	
  1591.000	-0.0002011474	
  1592.000	-0.0002013547	
  1593.000	-0.0002015619	
  1594.000	-0.000201769	
  1595.000	-0.0002019758	
  1596.000	-0.0002021826	
  1597.000	-0.0002023891	
  1598.000	-0.0002025955	
  1599.000	-0.0002028017	
  1600.000	-0.0002030077	
  1601.000	-0.0002032135	
  1602.000	-0.0002034191	
  1603.000	-0.0002036245	
  1604.000	-0.0002038297	
  1605.000	-0.0002040347	
  1606.000	-0.0002042395	
  1607.000	-0.000204444	
  1608.000	-0.0002046483	
  1609.000	-0.0002048524	
  1610.000	-0.0002050563	
  1611.000	-0.0002052598	
  1612.000	-0.0002054632	
  1613.000	-0.0002056663	
  1614.000	-0.0002058691	
  1615.000	-0.0002060717	
  1616.000	-0.000206274	
  1617.000	-0.000206476	
  1618.000	-0.0002066777	
  1619.000	-0.0002068792	
  1620.000	-0.0002070804	
  1621.000	-0.0002072813	
  1622.000	-0.0002074819	
  1623.000	-0.0002076822	
  1624.000	-0.0002078821	
  1625.000	-0.0002080818	
  1626.000	-0.0002082812	
  1627.000	-0.0002084803	
  1628.000	-0.000208679	
  1629.000	-0.0002088774	
  1630.000	-0.0002090756	
  1631.000	-0.0002092733	
  1632.000	-0.0002094708	
  1633.000	-0.0002096679	
  1634.000	-0.0002098647	
  1635.000	-0.0002100611	
  1636.000	-0.0002102572	
  1637.000	-0.0002104529	
  1638.000	-0.0002106483	
  1639.000	-0.0002108434	
  1640.000	-0.000211038	
  1641.000	-0.0002112324	
  1642.000	-0.0002114263	
  1643.000	-0.0002116199	
  1644.000	-0.0002118132	
  1645.000	-0.000212006	
  1646.000	-0.0002121985	
  1647.000	-0.0002123906	
  1648.000	-0.0002125824	
  1649.000	-0.0002127737	
  1650.000	-0.0002129647	
  1651.000	-0.0002131553	
  1652.000	-0.0002133455	
  1653.000	-0.0002135354	
  1654.000	-0.0002137248	
  1655.000	-0.0002139139	
  1656.000	-0.0002141025	
  1657.000	-0.0002142908	
  1658.000	-0.0002144786	
  1659.000	-0.0002146661	
  1660.000	-0.0002148531	
  1661.000	-0.0002150398	
  1662.000	-0.000215226	
  1663.000	-0.0002154119	
  1664.000	-0.0002155973	
  1665.000	-0.0002157823	
  1666.000	-0.0002159669	
  1667.000	-0.0002161511	
  1668.000	-0.0002163349	
  1669.000	-0.0002165183	
  1670.000	-0.0002167012	
  1671.000	-0.0002168838	
  1672.000	-0.0002170659	
  1673.000	-0.0002172476	
  1674.000	-0.0002174288	
  1675.000	-0.0002176097	
  1676.000	-0.0002177901	
  1677.000	-0.0002179701	
  1678.000	-0.0002181496	
  1679.000	-0.0002183288	
  1680.000	-0.0002185075	
  1681.000	-0.0002186857	
  1682.000	-0.0002188636	
  1683.000	-0.000219041	
  1684.000	-0.000219218	
  1685.000	-0.0002193945	
  1686.000	-0.0002195706	
  1687.000	-0.0002197463	
  1688.000	-0.0002199215	
  1689.000	-0.0002200963	
  1690.000	-0.0002202707	
  1691.000	-0.0002204446	
  1692.000	-0.0002206181	
  1693.000	-0.0002207911	
  1694.000	-0.0002209637	
  1695.000	-0.0002211359	
  1696.000	-0.0002213076	
  1697.000	-0.0002214789	
  1698.000	-0.0002216497	
  1699.000	-0.0002218201	
  1700.000	-0.0002219901	
  1701.000	-0.0002221596	
  1702.000	-0.0002223286	
  1703.000	-0.0002224973	
  1704.000	-0.0002226654	
  1705.000	-0.0002228332	
  1706.000	-0.0002230004	
  1707.000	-0.0002231673	
  1708.000	-0.0002233337	
  1709.000	-0.0002234996	
  1710.000	-0.0002236651	
  1711.000	-0.0002238302	
  1712.000	-0.0002239948	
  1713.000	-0.0002241589	
  1714.000	-0.0002243226	
  1715.000	-0.0002244859	
  1716.000	-0.0002246487	
  1717.000	-0.0002248111	
  1718.000	-0.000224973	
  1719.000	-0.0002251345	
  1720.000	-0.0002252955	
  1721.000	-0.0002254561	
  1722.000	-0.0002256162	
  1723.000	-0.0002257759	
  1724.000	-0.0002259351	
  1725.000	-0.0002260939	
  1726.000	-0.0002262523	
  1727.000	-0.0002264102	
  1728.000	-0.0002265676	
  1729.000	-0.0002267246	
  1730.000	-0.0002268812	
  1731.000	-0.0002270373	
  1732.000	-0.000227193	
  1733.000	-0.0002273482	
  1734.000	-0.000227503	
  1735.000	-0.0002276574	
  1736.000	-0.0002278113	
  1737.000	-0.0002279647	
  1738.000	-0.0002281177	
  1739.000	-0.0002282703	
  1740.000	-0.0002284224	
  1741.000	-0.0002285741	
  1742.000	-0.0002287253	
  1743.000	-0.0002288761	
  1744.000	-0.0002290265	
  1745.000	-0.0002291764	
  1746.000	-0.0002293259	
  1747.000	-0.0002294749	
  1748.000	-0.0002296235	
  1749.000	-0.0002297717	
  1750.000	-0.0002299194	
  1751.000	-0.0002300667	
  1752.000	-0.0002302135	
  1753.000	-0.0002303599	
  1754.000	-0.0002305059	
  1755.000	-0.0002306514	
  1756.000	-0.0002307965	
  1757.000	-0.0002309412	
  1758.000	-0.0002310854	
  1759.000	-0.0002312292	
  1760.000	-0.0002313726	
  1761.000	-0.0002315155	
  1762.000	-0.000231658	
  1763.000	-0.0002318001	
  1764.000	-0.0002319417	
  1765.000	-0.0002320829	
  1766.000	-0.0002322237	
  1767.000	-0.0002323641	
  1768.000	-0.000232504	
  1769.000	-0.0002326435	
  1770.000	-0.0002327826	
  1771.000	-0.0002329212	
  1772.000	-0.0002330594	
  1773.000	-0.0002331972	
  1774.000	-0.0002333346	
  1775.000	-0.0002334716	
  1776.000	-0.0002336081	
  1777.000	-0.0002337442	
  1778.000	-0.0002338799	
  1779.000	-0.0002340152	
  1780.000	-0.00023415	
  1781.000	-0.0002342844	
  1782.000	-0.0002344184	
  1783.000	-0.000234552	
  1784.000	-0.0002346852	
  1785.000	-0.000234818	
  1786.000	-0.0002349503	
  1787.000	-0.0002350823	
  1788.000	-0.0002352138	
  1789.000	-0.0002353449	
  1790.000	-0.0002354756	
  1791.000	-0.0002356059	
  1792.000	-0.0002357358	
  1793.000	-0.0002358653	
  1794.000	-0.0002359943	
  1795.000	-0.000236123	
  1796.000	-0.0002362513	
  1797.000	-0.0002363791	
  1798.000	-0.0002365066	
  1799.000	-0.0002366336	
  1800.000	-0.0002367602	
  1801.000	-0.0002368865	
  1802.000	-0.0002370123	
  1803.000	-0.0002371378	
  1804.000	-0.0002372628	
  1805.000	-0.0002373874	
  1806.000	-0.0002375117	
  1807.000	-0.0002376355	
  1808.000	-0.000237759	
  1809.000	-0.000237882	
  1810.000	-0.0002380047	
  1811.000	-0.000238127	
  1812.000	-0.0002382489	
  1813.000	-0.0002383703	
  1814.000	-0.0002384914	
  1815.000	-0.0002386122	
  1816.000	-0.0002387325	
  1817.000	-0.0002388524	
  1818.000	-0.000238972	
  1819.000	-0.0002390911	
  1820.000	-0.0002392099	
  1821.000	-0.0002393283	
  1822.000	-0.0002394463	
  1823.000	-0.0002395639	
  1824.000	-0.0002396812	
  1825.000	-0.0002397981	
  1826.000	-0.0002399146	
  1827.000	-0.0002400307	
  1828.000	-0.0002401464	
  1829.000	-0.0002402618	
  1830.000	-0.0002403768	
  1831.000	-0.0002404914	
  1832.000	-0.0002406056	
  1833.000	-0.0002407195	
  1834.000	-0.000240833	
  1835.000	-0.0002409461	
  1836.000	-0.0002410589	
  1837.000	-0.0002411713	
  1838.000	-0.0002412833	
  1839.000	-0.000241395	
  1840.000	-0.0002415063	
  1841.000	-0.0002416172	
  1842.000	-0.0002417278	
  1843.000	-0.000241838	
  1844.000	-0.0002419478	
  1845.000	-0.0002420573	
  1846.000	-0.0002421664	
  1847.000	-0.0002422752	
  1848.000	-0.0002423836	
  1849.000	-0.0002424916	
  1850.000	-0.0002425993	
  1851.000	-0.0002427067	
  1852.000	-0.0002428136	
  1853.000	-0.0002429203	
  1854.000	-0.0002430266	
  1855.000	-0.0002431325	
  1856.000	-0.0002432381	
  1857.000	-0.0002433433	
  1858.000	-0.0002434482	
  1859.000	-0.0002435527	
  1860.000	-0.0002436569	
  1861.000	-0.0002437608	
  1862.000	-0.0002438643	
  1863.000	-0.0002439674	
  1864.000	-0.0002440703	
  1865.000	-0.0002441727	
  1866.000	-0.0002442749	
  1867.000	-0.0002443767	
  1868.000	-0.0002444781	
  1869.000	-0.0002445793	
  1870.000	-0.00024468	
  1871.000	-0.0002447805	
  1872.000	-0.0002448806	
  1873.000	-0.0002449804	
  1874.000	-0.0002450799	
  1875.000	-0.000245179	
  1876.000	-0.0002452778	
  1877.000	-0.0002453762	
  1878.000	-0.0002454744	
  1879.000	-0.0002455722	
  1880.000	-0.0002456697	
  1881.000	-0.0002457668	
  1882.000	-0.0002458636	
  1883.000	-0.0002459601	
  1884.000	-0.0002460563	
  1885.000	-0.0002461522	
  1886.000	-0.0002462477	
  1887.000	-0.000246343	
  1888.000	-0.0002464379	
  1889.000	-0.0002465324	
  1890.000	-0.0002466267	
  1891.000	-0.0002467207	
  1892.000	-0.0002468143	
  1893.000	-0.0002469076	
  1894.000	-0.0002470006	
  1895.000	-0.0002470933	
  1896.000	-0.0002471857	
  1897.000	-0.0002472778	
  1898.000	-0.0002473696	
  1899.000	-0.000247461	
  1900.000	-0.0002475522	
  1901.000	-0.000247643	
  1902.000	-0.0002477336	
  1903.000	-0.0002478238	
  1904.000	-0.0002479137	
  1905.000	-0.0002480034	
  1906.000	-0.0002480927	
  1907.000	-0.0002481817	
  1908.000	-0.0002482704	
  1909.000	-0.0002483589	
  1910.000	-0.000248447	
  1911.000	-0.0002485348	
  1912.000	-0.0002486224	
  1913.000	-0.0002487096	
  1914.000	-0.0002487966	
  1915.000	-0.0002488832	
  1916.000	-0.0002489696	
  1917.000	-0.0002490556	
  1918.000	-0.0002491414	
  1919.000	-0.0002492269	
  1920.000	-0.0002493121	
  1921.000	-0.000249397	
  1922.000	-0.0002494816	
  1923.000	-0.000249566	
  1924.000	-0.00024965	
  1925.000	-0.0002497338	
  1926.000	-0.0002498173	
  1927.000	-0.0002499005	
  1928.000	-0.0002499834	
  1929.000	-0.000250066	
  1930.000	-0.0002501484	
  1931.000	-0.0002502304	
  1932.000	-0.0002503122	
  1933.000	-0.0002503938	
  1934.000	-0.000250475	
  1935.000	-0.000250556	
  1936.000	-0.0002506367	
  1937.000	-0.0002507171	
  1938.000	-0.0002507972	
  1939.000	-0.0002508771	
  1940.000	-0.0002509567	
  1941.000	-0.000251036	
  1942.000	-0.0002511151	
  1943.000	-0.0002511939	
  1944.000	-0.0002512724	
  1945.000	-0.0002513507	
  1946.000	-0.0002514287	
  1947.000	-0.0002515064	
  1948.000	-0.0002515839	
  1949.000	-0.0002516611	
  1950.000	-0.000251738	
  1951.000	-0.0002518147	
  1952.000	-0.0002518911	
  1953.000	-0.0002519673	
  1954.000	-0.0002520431	
  1955.000	-0.0002521188	
  1956.000	-0.0002521942	
  1957.000	-0.0002522693	
  1958.000	-0.0002523441	
  1959.000	-0.0002524188	
  1960.000	-0.0002524931	
  1961.000	-0.0002525672	
  1962.000	-0.0002526411	
  1963.000	-0.0002527146	
  1964.000	-0.000252788	
  1965.000	-0.0002528611	
  1966.000	-0.0002529339	
  1967.000	-0.0002530065	
  1968.000	-0.0002530789	
  1969.000	-0.000253151	
  1970.000	-0.0002532228	
  1971.000	-0.0002532944	
  1972.000	-0.0002533658	
  1973.000	-0.0002534369	
  1974.000	-0.0002535078	
  1975.000	-0.0002535784	
  1976.000	-0.0002536488	
  1977.000	-0.000253719	
  1978.000	-0.0002537889	
  1979.000	-0.0002538586	
  1980.000	-0.000253928	
  1981.000	-0.0002539972	
  1982.000	-0.0002540662	
  1983.000	-0.0002541349	
  1984.000	-0.0002542034	
  1985.000	-0.0002542716	
  1986.000	-0.0002543396	
  1987.000	-0.0002544074	
  1988.000	-0.000254475	
  1989.000	-0.0002545423	
  1990.000	-0.0002546094	
  1991.000	-0.0002546763	
  1992.000	-0.0002547429	
  1993.000	-0.0002548093	
  1994.000	-0.0002548755	
  1995.000	-0.0002549414	
  1996.000	-0.0002550071	
  1997.000	-0.0002550726	
  1998.000	-0.0002551379	
  1999.000	-0.000255203	
  2000.000	-0.0002552678	
